MSG_No;Signal1;Signal2;Calc_time[us]
2;-1.66472;-2.89386; 9.34375
7;-1.63172;-2.80888; 9.4375
12;-1.59826;-3.2752; 9.125
16;-1.56435;-3.18936; 9.34375
21;-1.53001;-3.10312; 9.46875
25;-1.49524;-3.01647; 9.34375
29;-1.46004;-2.92942; 9.34375
34;-1.42443;-2.84199; 9.4375
38;-1.38842;-2.75419; 9.34375
42;-1.35201;-2.66602; 9.34375
48;-1.31522;-2.5775; 9.46875
52;-1.27804;-2.48863; 9.34375
56;-1.24049;-2.39943; 9.34375
61;-1.20259;-2.3099; 9.4375
65;-1.16432;-2.22006; 9.375
69;-1.12572;-2.12991; 9.34375
74;-1.08678;-2.03948; 9.46875
78;-1.04751;-1.94875; 9.34375
83;-1.00793;-2.40948; 9.25
88;-0.968042;-2.31823; 9.46875
92;-0.927855;-2.22672; 9.34375
96;-0.88738;-2.13498; 9.34375
101;-0.846627;-2.043; 9.46875
105;-0.805604;-1.95081; 9.34375
109;-0.764321;-1.8584; 9.34375
114;-0.722788;-1.76581; 9.46875
119;-0.681015;-1.67302; 9.34375
123;-0.639012;-1.58006; 9.4375
128;-0.596788;-1.48694; 9.4375
132;-0.554353;-1.39367; 9.34375
136;-0.511717;-1.30026; 9.34375
141;-0.468891;-1.20671; 9.4375
145;-0.425884;-1.11305; 9.375
149;-0.382706;-1.01929; 9.34375
155;-0.339368;-1.47715; 9.25
159;-0.295879;-1.3832; 9.34375
163;-0.252251;-1.28918; 9.34375
168;-0.208492;-1.1951; 9.46875
172;-0.164613;-1.10098; 9.34375
176;-0.120625;-1.00681; 9.34375
181;-0.0765381;-0.912618; 9.46875
185;-0.0323622;-0.818411; 9.34375
190;0.0118922;-0.724202; 9.46875
195;0.0562147;-0.630002; 9.46875
199;0.100595;-0.535821; 9.375
203;0.145022;-0.441674; 9.34375
208;0.189487;-0.347569; 9.46875
212;0.233979;-0.253519; 9.5
216;0.278486;-0.159537; 9.34375
221;0.322998;-0.0656338; 9.4375
226;0.367506;-0.523545; 9.125
230;0.411999;-0.429833; 9.34375
235;0.456466;-0.336235; 9.46875
239;0.500896;-0.242762; 9.34375
243;0.545281;-0.149426; 9.34375
248;0.589608;-0.0562386; 9.46875
252;0.633868;0.0367896; 9.34375
256;0.678051;0.129646; 9.375
262;0.722145;0.222321; 9.4375
266;0.766141;0.3148; 9.5
270;0.810029;0.407074; 9.34375
275;0.853797;0.499131; 9.46875
279;0.897437;0.590959; 9.34375
283;0.940937;0.682547; 9.34375
288;0.984287;0.773884; 9.46875
292;1.02748;0.864959; 9.34375
297;1.0705;0.404036; 9.25
302;1.11334;0.494552; 9.46875
306;1.15599;0.584772; 9.34375
310;1.19844;0.674686; 9.34375
315;1.24068;0.764281; 9.4375
319;1.2827;0.853547; 9.5
323;1.32449;0.942474; 9.375
328;1.36604;1.03105; 9.46875
333;1.40734;1.11926; 9.6875
337;1.44838;1.20711; 9.78125
342;1.48916;1.29456; 9.78125
346;1.52965;1.38163; 9.6875
350;1.56986;1.46829; 9.65625
355;1.60977;1.55454; 9.75
359;1.64937;1.64036; 9.65625
363;1.68866;1.72575; 9.65625
369;1.72762;1.25897; 9.5625
373;1.76625;1.34346; 9.8125
377;1.80453;1.42748; 9.65625
382;1.84246;1.51102; 9.75
386;1.88003;1.59409; 9.65625
390;1.91723;1.67665; 9.65625
395;1.95405;1.75872; 9.75
399;1.99049;1.84027; 9.65625
404;2.02652;1.92129; 9.75
409;2.06216;2.00178; 9.75
413;2.09737;2.08173; 9.65625
417;2.13217;2.16113; 9.625
422;2.16654;2.23997; 9.75
426;2.20047;2.31824; 9.8125
430;2.23395;2.39593; 9.65625
435;2.26698;2.47304; 9.75
440;2.29955;1.99783; 9.4375
444;2.33165;2.07373; 9.65625
449;2.36327;2.14903; 9.78125
453;2.39441;2.2237; 9.875
457;2.42505;2.29775; 9.75
462;2.4552;2.37116; 9.875
466;2.48484;2.44392; 9.75
470;2.51397;2.51603; 9.75
476;2.54258;2.58749; 9.875
480;2.57066;2.65827; 9.90625
484;2.5982;2.72839; 9.75
489;2.62521;2.79782; 9.875
493;2.65167;2.86656; 9.75
497;2.67758;2.9346; 9.75
502;2.70292;3.00195; 9.875
506;2.72771;3.06858; 9.75
511;2.75192;2.58278; 9.65625
516;2.77555;2.64797; 9.875
520;2.79861;2.71244; 9.75
524;2.82107;2.77618; 9.75
529;2.84294;2.83917; 9.84375
533;2.86421;2.90142; 9.875
537;2.88488;2.96291; 9.71875
542;2.90494;3.02365; 9.875
547;2.92439;3.08363; 9.75
551;2.94322;3.14283; 9.75
556;2.96142;3.20127; 9.84375
560;2.979;3.25893; 9.71875
564;2.99595;3.3158; 9.71875
569;3.01226;3.37189; 9.875
573;3.02793;3.42718; 9.71875
577;3.04296;3.48168; 9.71875
583;3.05734;2.98366; 9.625
587;3.07107;3.03656; 9.875
591;3.08414;3.08864; 9.71875
596;3.09656;3.13992; 9.875
600;3.10832;3.19039; 9.71875
604;3.11941;3.24003; 9.71875
609;3.12984;3.28885; 9.875
613;3.1396;3.33685; 9.75
618;3.14869;3.38403; 9.875
623;3.1571;3.43037; 9.875
627;3.16484;3.47588; 9.75
631;3.1719;3.52056; 9.75
636;3.17829;3.5644; 9.84375
640;3.18399;3.6074; 9.875
644;3.189;3.64957; 9.71875
649;3.19334;3.69089; 9.875
654;3.19699;3.17964; 9.53125
658;3.19995;3.21928; 9.71875
663;3.20222;3.25806; 9.875
667;3.20381;3.29601; 9.75
671;3.2047;3.3331; 9.75
676;3.20491;3.36935; 9.875
680;3.20443;3.40474; 9.75
684;3.20326;3.43929; 9.75
690;3.20139;3.47299; 9.875
694;3.19884;3.50585; 9.875
698;3.1956;3.53785; 9.75
703;3.19167;3.56901; 9.84375
707;3.18706;3.59932; 9.75
711;3.18175;3.62878; 9.75
716;3.17576;3.65739; 9.84375
720;3.16909;3.68517; 9.71875
725;3.16173;3.16037; 9.65625
730;3.15369;3.18646; 9.875
734;3.14497;3.21171; 9.75
738;3.13556;3.23611; 9.75
743;3.12549;3.25969; 9.875
747;3.11473;3.28242; 9.90625
751;3.10331;3.30433; 9.75
756;3.09121;3.32541; 9.875
761;3.07845;3.34566; 9.75
765;3.06502;3.36508; 9.75
770;3.05092;3.38368; 9.875
774;3.03617;3.40147; 9.75
778;3.02077;3.41844; 9.75
783;3.00471;3.4346; 9.875
787;2.988;3.44995; 9.75
791;2.97064;3.4645; 9.75
797;2.95264;2.92652; 9.65625
801;2.93401;2.93948; 9.90625
805;2.91474;2.95164; 9.75
810;2.89483;2.96301; 9.875
814;2.87431;2.9736; 9.75
818;2.85316;2.98341; 9.75
823;2.8314;2.99245; 9.875
827;2.80902;3.00072; 9.75
832;2.78604;3.00823; 9.875
837;2.76245;3.01498; 9.875
841;2.73827;3.02098; 9.75
845;2.7135;3.02623; 9.75
850;2.68814;3.03074; 9.875
854;2.6622;3.03451; 9.90625
858;2.63568;3.03756; 9.75
863;2.6086;3.03988; 9.875
868;2.58095;2.48977; 9.53125
872;2.55275;2.49066; 9.75
877;2.52399;2.49086; 9.875
881;2.49469;2.49036; 9.75
885;2.46485;2.48916; 9.78125
890;2.43449;2.48729; 9.875
894;2.40359;2.48474; 9.75
898;2.37218;2.48153; 9.75
904;2.34026;2.47765; 9.875
908;2.30784;2.47312; 9.90625
912;2.27491;2.46794; 9.75
917;2.2415;2.46213; 9.75
921;2.20761;2.45569; 9.625
925;2.17325;2.44863; 9.625
930;2.13841;2.44095; 9.71875
934;2.10312;2.43267; 9.59375
939;2.06738;1.87207; 9.5
944;2.03119;1.86261; 9.75
948;1.99457;1.85256; 9.625
952;1.95752;1.84195; 9.625
957;1.92005;1.83077; 9.71875
961;1.88218;1.81904; 9.78125
965;1.8439;1.80677; 9.625
970;1.80523;1.79396; 9.75
975;1.76617;1.78063; 9.625
979;1.72674;1.76679; 9.625
984;1.68694;1.75243; 9.75
988;1.64678;1.73758; 9.625
992;1.60627;1.72225; 9.625
997;1.56542;1.70643; 9.75
1001;1.52424;1.69015; 9.625
1005;1.48274;1.67341; 9.625
1011;1.44093;1.1045; 9.5
1015;1.39881;1.08688; 9.75
1019;1.3564;1.06883; 9.625
1024;1.3137;1.05036; 9.71875
1028;1.27074;1.03149; 9.625
1032;1.2275;1.01222; 9.625
1037;1.18401;0.992572; 9.71875
1041;1.14027;0.972543; 9.59375
1046;1.0963;0.952151; 9.71875
